Time (s),Channel 1 (V),Channel 2 (V)
-0.00023625,-0.3761251992914464,-0.4261324900314486
-0.000236175,-0.3772310525043258,-0.427429239801326
-0.0002361,-0.3791692889197174,-0.4289982655392839
-0.000236025,-0.3802167035409872,-0.4298007793245747
-0.00023595,-0.380403229296671,-0.4295878112187805
-0.000235875,-0.3800921349827516,-0.4291761891261452
-0.0002358,-0.379345139919099,-0.4280794381409083
-0.0002357249999999999,-0.3791768712675109,-0.4274636005247691
-0.00023565,-0.3805693966963227,-0.4284113182826559
-0.000235575,-0.3825334130942082,-0.4296634959830862
-0.0002355,-0.3849177096142183,-0.4319214228854401
-0.000235425,-0.3878630106667461,-0.434434439695857
-0.0002353499999999999,-0.3900160703580161,-0.436491205361237
-0.000235275,-0.3928223220547602,-0.4389791268771197
-0.0002352,-0.396284540995391,-0.4418099034523882
-0.000235125,-0.3979433208147098,-0.443386621889625
-0.00023505,-0.3993751951595143,-0.4447100624768494
-0.000234975,-0.4002393052839657,-0.4451765477610779
-0.0002349,-0.4000711357480345,-0.4447176526068041
-0.000234825,-0.3994133447760528,-0.4435601577887487
-0.00023475,-0.3986105178625803,-0.4423108178396085
-0.0002346749999999999,-0.3981082988264728,-0.4414007658167051
-0.0002346,-0.3991105563542244,-0.4419789718876351
-0.000234525,-0.4011377887184073,-0.4434516736340395
-0.00023445,-0.4032920377975637,-0.4450407573730789
-0.000234375,-0.4065248634606782,-0.4478554761508899
-0.0002342999999999999,-0.409004499331556,-0.4500067309565887
-0.000234225,-0.4117466529326518,-0.4523664408178355
-0.00023415,-0.4148634240725037,-0.4552413449954818
-0.000234075,-0.4169582235803445,-0.4569462636907632
-0.000234,-0.4183170100393733,-0.458089489976231
-0.000233925,-0.4186457271171815,-0.4583396337635744
-0.00023385,-0.4184349774948259,-0.4579740311075099
-0.000233775,-0.4176166687156651,-0.456825938477461
-0.0002337,-0.4166799266374632,-0.4554924916828795
-0.0002336249999999999,-0.4168290758787371,-0.4547474281154573
-0.00023355,-0.4183816730942697,-0.4554034843030825
-0.000233475,-0.4201446631157917,-0.4570169909377562
-0.0002334,-0.4223461507172709,-0.4587698778867588
-0.000233325,-0.4246808894085739,-0.4609146252386949
-0.00023325,-0.4270498329132533,-0.4627815350858893
-0.000233175,-0.4299553885871586,-0.4652040743562034
-0.0002331,-0.4325230094271186,-0.4675302554451899
-0.000233025,-0.4343812694185453,-0.469070208478173
-0.0002329499999999999,-0.4357147318271057,-0.4698898285473395
-0.000232875,-0.4357703257993484,-0.4697746204036315
-0.0002328,-0.4351805083452197,-0.4690990190615436
-0.000232725,-0.4345548308462395,-0.4677374682722651
-0.00023265,-0.4334526746473825,-0.4662615640836432
-0.0002325749999999999,-0.4327291006135765,-0.4651662148791638
-0.0002325,-0.4341391893368817,-0.4657382326008966
-0.000232425,-0.4358789466483062,-0.4673045573466642
-0.00023235,-0.4381914437860871,-0.4692280626673609
-0.000232275,-0.4407449406448645,-0.47135495156038
-0.0002322,-0.4429899796662117,-0.4733126580522388
-0.000232125,-0.4457305176820931,-0.4756175844980344
-0.00023205,-0.4484033299692642,-0.4778546898276755
-0.000231975,-0.4497474869572591,-0.479144852367652
-0.0002318999999999999,-0.4507838799174246,-0.4798869300280949
-0.000231825,-0.4507318739319801,-0.4794016403678537
-0.00023175,-0.450161314650087,-0.4785007512045349
-0.000231675,-0.4492282200280771,-0.477399042701986
-0.0002316,-0.4484564262269402,-0.4757031387106
-0.0002315249999999999,-0.4482586508441402,-0.4749075312597723
-0.00023145,-0.4491163977433849,-0.4752038540359673
-0.000231375,-0.4505984047877089,-0.4762998756393463
-0.0002313,-0.4526178070149561,-0.4782527727695816
-0.0002312249999999999,-0.454950712066599,-0.4802869503905607
-0.00023115,-0.4567594736987132,-0.4817645640679109
-0.000231075,-0.4590624656449481,-0.4835200038534149
-0.000231,-0.4617442776338126,-0.48552692082747
-0.000230925,-0.4629762059629197,-0.4863316113617406
-0.0002308499999999999,-0.4633042391426913,-0.4867961706220015
-0.000230775,-0.4628469888803518,-0.4861295611906261
-0.0002307,-0.4619923343896181,-0.4849195964651978
-0.000230625,-0.4610018022441381,-0.4832204558418187
-0.00023055,-0.4594123736503112,-0.4813300462229062
-0.000230475,-0.4593002738417777,-0.4807526721031565
-0.0002304,-0.4604899194314326,-0.4815554594066431
-0.000230325,-0.46203354667997,-0.4827244761787284
-0.00023025,-0.4645805811978855,-0.4844522906263798
-0.0002301749999999999,-0.4667009723684711,-0.4863287850070442
-0.0002301,-0.4688632696390084,-0.488244335506857
-0.000230025,-0.4711249898254972,-0.4898376131915768
-0.00022995,-0.4732128215026217,-0.4919157018796947
-0.000229875,-0.4745590004500279,-0.4928058212640234
-0.0002297999999999999,-0.4750844323731015,-0.4928630207568785
-0.000229725,-0.4748623637426697,-0.4924660318877592
-0.00022965,-0.4738905743680061,-0.4911511957271342
-0.000229575,-0.4725470715433498,-0.4894946669594604
-0.0002295,-0.4713371468901884,-0.4877234314981062
-0.000229425,-0.4714001745367362,-0.4868998682082717
-0.00022935,-0.4726784691703811,-0.4878525548800633
-0.000229275,-0.47386936361732,-0.488472153371406
-0.0002292,-0.4755327820494049,-0.489607607181455
-0.0002291249999999999,-0.4772593173321322,-0.4912401005376073
-0.00022905,-0.4788394786119909,-0.4923919198530837
-0.000228975,-0.4811505385727395,-0.4941434961940612
-0.0002289,-0.4827522475965204,-0.4953490048522038
-0.000228825,-0.4834593386964986,-0.4958139401999846
-0.0002287499999999999,-0.4832534754760534,-0.495307658018157
-0.000228675,-0.4824345026219883,-0.4941695374056917
-0.0002286,-0.481183990107116,-0.4927015310549948
-0.000228525,-0.4797356526516147,-0.4908066653687959
-0.0002284499999999999,-0.4782759069839453,-0.4887010767053325
-0.000228375,-0.4783891168878415,-0.4879737120445465
-0.0002283,-0.4793366031033074,-0.488506593870989
-0.000228225,-0.480655009843507,-0.4898484285569325
-0.00022815,-0.4826445386116094,-0.4911963946091145
-0.0002280749999999999,-0.4842166120538259,-0.492506991237694
-0.000228,-0.4861701221920247,-0.4938642341153764
-0.000227925,-0.4880989624430946,-0.4955062208322668
-0.00022785,-0.4898815178953896,-0.4968867925327973
-0.000227775,-0.4906599623571388,-0.4975216624567807
-0.0002277,-0.4910739288118867,-0.4973611870515423
-0.000227625,-0.490569658081671,-0.4965173036390232
-0.00022755,-0.4890354468205879,-0.4947881557901634
-0.000227475,-0.4874654746303111,-0.4926872055394511
-0.0002273999999999999,-0.4861420328147141,-0.4906775305902461
-0.000227325,-0.4858890202760379,-0.4900731351519957
-0.00022725,-0.4867370736639882,-0.4902339866447544
-0.000227175,-0.4876068928503059,-0.4907692731520082
-0.0002271,-0.4896557522509352,-0.4921772764483348
-0.0002270249999999999,-0.4906886959862234,-0.4930935738033941
-0.00022695,-0.49190256544255,-0.4941537303332491
-0.000226875,-0.4938728063037208,-0.4952591313314517
-0.0002268,-0.4949672909506948,-0.496077828276705
-0.000226725,-0.4952048513583803,-0.4959431319614921
-0.00022665,-0.4948084382865604,-0.4952812749087812
-0.000226575,-0.4936565062045501,-0.4938377712298593
-0.0002265,-0.4920611108481462,-0.491796937999431
-0.000226425,-0.4900931892933602,-0.4896066042814023
-0.0002263499999999999,-0.4886908216797657,-0.487828245950344
-0.000226275,-0.488862390882746,-0.4871422737099705
-0.0002262,-0.4900343839738166,-0.4874625179317728
-0.000226125,-0.4909497269815837,-0.4880674831995998
-0.00022605,-0.492726186820947,-0.4896747103123435
-0.0002259749999999999,-0.4944593033833267,-0.4908182557023754
-0.0002259,-0.49598590256192,-0.4917194069872988
-0.000225825,-0.4976907909850667,-0.4930132620229294
-0.00022575,-0.498735291606008,-0.4938007892903666
-0.0002256749999999999,-0.4991759201725991,-0.4938587523548532
-0.0002256,-0.4984389060556483,-0.4932013513694284
-0.000225525,-0.497189008057852,-0.4914572625890816
-0.00022545,-0.4954528189100942,-0.4891557095343768
-0.000225375,-0.493573169759799,-0.4871427865565898
-0.0002252999999999999,-0.4919295645476291,-0.4850940440916431
-0.000225225,-0.4918395179728701,-0.4839031458638339
-0.00022515,-0.4923510340576428,-0.4841257098996907
-0.000225075,-0.4929092534401882,-0.4842076513927425
-0.000225,-0.4940091398904909,-0.4848006616360612
-0.000224925,-0.4947334473801629,-0.4853037185824882
-0.00022485,-0.4961713083106753,-0.4860882827361289
-0.000224775,-0.4974794169340694,-0.4874556685802675
-0.0002247,-0.4980737937084386,-0.487721163576392
-0.0002246249999999999,-0.4980596003462974,-0.4873331324282092
-0.00022455,-0.497446540270506,-0.4863375147961502
-0.000224475,-0.4960151813271195,-0.4846022697708254
-0.0002244,-0.4945487453525746,-0.4825497550340858
-0.000224325,-0.4924897265970606,-0.4800552690814859
-0.0002242499999999999,-0.491035243970799,-0.478318371550389
-0.000224175,-0.4910736711111777,-0.4778391220836549
-0.0002241,-0.4915994796737491,-0.4777164035861331
-0.000224025,-0.4923126762982242,-0.4781080702470111
-0.00022395,-0.49371287327892,-0.47899063369116
-0.000223875,-0.4946070749169618,-0.479599473800105
-0.0002238,-0.496130601510176,-0.4804943797528741
-0.000223725,-0.4979362707337796,-0.4818935620873624
-0.00022365,-0.4986473661063172,-0.4823509414949632
-0.0002235749999999999,-0.4984229385232386,-0.4818960921306799
-0.0002235,-0.4973519244639403,-0.4807605471478988
-0.000223425,-0.4958711266306366,-0.4787418574948001
-0.00022335,-0.4938475912804752,-0.4766395852394703
-0.000223275,-0.4914373066350925,-0.4736048438657123
-0.0002232,-0.489574784670396,-0.4709630455710801
-0.000223125,-0.4890680856065737,-0.469989229618605
-0.00022305,-0.4893155774031318,-0.4696582156178131
-0.000222975,-0.489752003465849,-0.469822907761915
-0.0002228999999999999,-0.4909354543269165,-0.4703990054634137
-0.000222825,-0.4916684939060053,-0.470636373671659
-0.00022275,-0.4925587903871447,-0.4714524494008622
-0.000222675,-0.4936368713928169,-0.4721241189188743
-0.0002226,-0.4937198510212022,-0.4720407756450652
-0.0002225249999999999,-0.493060840926634,-0.470989291921358
-0.00022245,-0.4920068351141474,-0.4694450765631462
-0.000222375,-0.4904404608222342,-0.4675376974194547
-0.0002223,-0.4883653655070869,-0.4653292659140859
-0.000222225,-0.4861763070090482,-0.4626878095172026
-0.00022215,-0.484586402660064,-0.460463844457586
-0.000222075,-0.4842575963781649,-0.4595175512736392
-0.000222,-0.4843942669581706,-0.4591865942558052
-0.000221925,-0.4853408115748905,-0.4595627387590287
-0.0002218499999999999,-0.4860993635241984,-0.4600216567064859
-0.000221775,-0.4864332742624541,-0.4602074097517228
-0.0002217,-0.4874736516720469,-0.4606444006570889
-0.000221625,-0.4887002872250485,-0.4616573297116723
-0.00022155,-0.4891516500173375,-0.4616064439305212
-0.0002214749999999999,-0.4884443309513468,-0.4605560998659666
-0.0002214,-0.4873242645531951,-0.4593419070050836
-0.000221325,-0.4854617525000656,-0.4572209443396557
-0.00022125,-0.4830979233633109,-0.4542728056648813
-0.000221175,-0.4804913698931209,-0.4514197145634117
-0.0002211,-0.478771029338982,-0.4489953176486769
-0.000221025,-0.4780429851890267,-0.4479345798926538
-0.00022095,-0.4779924857615752,-0.4475409758112164
-0.000220875,-0.4782741823715062,-0.4474476947095988
-0.0002207999999999999,-0.478633278398311,-0.4475070139684773
-0.000220725,-0.4792429288954875,-0.4473614225117681
-0.00022065,-0.4800891882900383,-0.4478019007741404
-0.000220575,-0.4807312396956231,-0.4482006333217631
-0.0002205,-0.4808666911530423,-0.4480403744517637
-0.000220425,-0.4801666273531736,-0.4471039279228918
-0.00022035,-0.4785082340849196,-0.4453468470282094
-0.000220275,-0.4764933118853871,-0.4427477745551996
-0.0002202,-0.47412115703341,-0.4400242968891224
-0.0002201249999999999,-0.4717353143091432,-0.437404961276383
-0.00022005,-0.4698493514914708,-0.434902246984703
-0.000219975,-0.46920079809876,-0.4336138965027782
-0.0002199,-0.4690857743783332,-0.4333803233595098
-0.000219825,-0.4695054102486844,-0.4335177662532798
-0.0002197499999999999,-0.4699727603965148,-0.4333563791207196
-0.000219675,-0.4701729938476186,-0.4333031570383061
-0.0002196,-0.4711468844742193,-0.4338087896144167
-0.000219525,-0.4716952616719838,-0.4339238382058436
-0.00021945,-0.4714203148383225,-0.4333075333294517
-0.000219375,-0.4706941142395943,-0.4321374452777618
-0.0002193,-0.469183561885936,-0.430100110800932
-0.000219225,-0.4668606576041268,-0.4277136303461965
-0.00021915,-0.4642990035267441,-0.425092459882224
-0.0002190749999999999,-0.4613662306933102,-0.4216674536283414
-0.000219,-0.4591721371198748,-0.4190164126979868
-0.000218925,-0.4582203889311401,-0.4176184042124256
-0.00021885,-0.4577788385889345,-0.4167129108261317
-0.000218775,-0.457799960135529,-0.4163556276818788
-0.0002186999999999999,-0.4580705161455673,-0.4164091232824886
-0.000218625,-0.458187869083943,-0.4159209844743664
-0.00021855,-0.4585110852427641,-0.4160520338802919
-0.000218475,-0.4588556509141919,-0.4161857842784083
-0.0002184,-0.4585373310688472,-0.4153156317224281
-0.000218325,-0.457401247580457,-0.4138568452142732
-0.00021825,-0.4557079160429644,-0.4121633800934725
-0.000218175,-0.4531836682146881,-0.4093678987621517
-0.0002181,-0.450614382231685,-0.4063340235293496
-0.0002180249999999999,-0.4475905022859577,-0.4030820403279721
-0.00021795,-0.4460740029928548,-0.4004187138719554
-0.000217875,-0.445162852577396,-0.3993102585872246
-0.0002178,-0.4450477000066144,-0.3985732752031929
-0.000217725,-0.4451664603873258,-0.3983630992623216
-0.00021765,-0.4452820986248288,-0.398751985154868
-0.000217575,-0.4456603239735135,-0.3984771221605115
-0.0002175,-0.4465891863569521,-0.3988561841911651
-0.000217425,-0.446956102609126,-0.3991014958237025
-0.0002173499999999999,-0.4461190114128851,-0.3985007472947383
-0.000217275,-0.444855415631235,-0.396736042080327
-0.0002172,-0.4427565523814403,-0.3941848011019399
-0.000217125,-0.4402632286382766,-0.391362549177131
-0.00021705,-0.4372292884533253,-0.3879084246319103
-0.0002169749999999999,-0.4341621742578345,-0.3843366758655746
-0.0002169,-0.432081112180112,-0.3820871824409488
-0.000216825,-0.4309993936298128,-0.3806492858850564
-0.00021675,-0.4302613685331559,-0.3797682609807627
-0.000216675,-0.4301142313397274,-0.3789360476779633
-0.0002166,-0.4296523127299238,-0.3779094655067344
-0.000216525,-0.4292810750350865,-0.37745183537412
-0.00021645,-0.4294783151933367,-0.3773212418318554
-0.000216375,-0.4293664929086443,-0.3769283101493182
-0.0002162999999999999,-0.4286109738984534,-0.376094649479394
-0.000216225,-0.4269903635188047,-0.3742409710749609
-0.00021615,-0.4250624252202174,-0.3718450884322186
-0.000216075,-0.4224728502621409,-0.3689277889341059
-0.000216,-0.4193776863356059,-0.3656413652331493
-0.0002159249999999999,-0.4165755677617724,-0.3623378352483124
-0.00021585,-0.4145772177001604,-0.3599438102499892
-0.000215775,-0.4137500479812271,-0.3585748174864462
-0.0002157,-0.4130089304760589,-0.3573925008920532
-0.000215625,-0.4132971488962476,-0.3573947688137664
-0.00021555,-0.4131437773279681,-0.3570256901972869
-0.000215475,-0.4130743963677797,-0.3565495292068557
-0.0002154,-0.413532806283311,-0.356581861337007
-0.000215325,-0.4134012203365307,-0.3561870720100515
-0.0002152499999999999,-0.4125851119249637,-0.3550076387533131
-0.000215175,-0.4111389550139262,-0.3534120361639231
-0.0002151,-0.4086765652674406,-0.3510063296592877
-0.000215025,-0.4054225090305071,-0.3475072569570978
-0.00021495,-0.402079942511506,-0.3437885263498913
-0.000214875,-0.398722429351363,-0.340211022304836
-0.0002148,-0.3963107075289478,-0.3374570017734777
-0.000214725,-0.3954161391629743,-0.3359168663950306
-0.00021465,-0.3944698324238314,-0.3344778757663518
-0.0002145749999999999,-0.3937981454366802,-0.3336790544767148
-0.0002145,-0.3934294451026727,-0.3330491420700439
-0.000214425,-0.3930002148366837,-0.3322489189996499
-0.00021435,-0.3931493938126548,-0.3320205427021163
-0.000214275,-0.392919435575893,-0.3315970453611137
-0.0002141999999999999,-0.3918330685012598,-0.3302058064509161
-0.000214125,-0.3900017778802162,-0.32820418889192
-0.00021405,-0.3876863568305415,-0.3257313792563961
-0.000213975,-0.3847447825267313,-0.3225054144734686
-0.0002139,-0.3812538497801498,-0.3188195858259897
-0.000213825,-0.3781588642617945,-0.3155110983238399
-0.00021375,-0.3762312431333118,-0.3129326992678543
-0.000213675,-0.3754624128903313,-0.3113705912609503
-0.0002136,-0.3745620859046622,-0.310340339387252
-0.0002135249999999999,-0.3741637698122193,-0.3097799575854633
-0.00021345,-0.3734866215523452,-0.309025092949332
-0.000213375,-0.3734398786083098,-0.3083027541854076
-0.0002133,-0.373674574573496,-0.308256301678359
-0.000213225,-0.3729401374636379,-0.3076134313471263
-0.0002131499999999999,-0.3717296478512273,-0.3062856144687552
-0.000213075,-0.3697028714190696,-0.304133106037992
-0.000213,-0.3669493096058044,-0.301319720661388
-0.000212925,-0.3633651387602936,-0.2975222054169798
-0.00021285,-0.3597960533178428,-0.2934528700681535
-0.000212775,-0.3563757404771644,-0.2894982869993704
-0.0002127,-0.3543344931590234,-0.2871787387266505
-0.000212625,-0.3531441438482004,-0.2854392769624622
-0.00021255,-0.3518617557379049,-0.2839797268826762
-0.0002124749999999999,-0.3513996884546141,-0.2831028161479213
-0.0002124,-0.3505608032649749,-0.2820714360116623
-0.000212325,-0.3503351962055734,-0.2815416540581143
-0.00021225,-0.3505918859351395,-0.2813817826722267
-0.000212175,-0.3497152674147235,-0.2804415182851957
-0.0002121,-0.3483487895806774,-0.2789839854021072
-0.000212025,-0.3460344786263672,-0.2766831275394863
-0.00021195,-0.343339900540828,-0.273592884765009
-0.000211875,-0.339855430135108,-0.2697458057440663
-0.0002117999999999999,-0.3361342418047895,-0.265510877920404
-0.000211725,-0.332877856349908,-0.2618065412082913
-0.00021165,-0.3309682742710735,-0.2595187324429637
-0.000211575,-0.3296142750982972,-0.2577470753077222
-0.0002115,-0.328603880175072,-0.2567780687168698
-0.0002114249999999999,-0.3283111123462071,-0.2561856966826754
-0.00021135,-0.3275493589611662,-0.2552785507906108
-0.000211275,-0.3273174977037818,-0.254605604854348
-0.0002112,-0.3271946339348537,-0.2545109903515223
-0.000211125,-0.3265337208196638,-0.2535734725430484
-0.00021105,-0.3252685391874943,-0.2518755057685958
-0.000210975,-0.3227550255849158,-0.2494210788351985
-0.0002109,-0.3195123478254529,-0.2461843328766901
-0.000210825,-0.3158968564322017,-0.242356719234071
-0.0002107499999999999,-0.3117526821223091,-0.2378104593231758
-0.000210675,-0.3082820978201942,-0.2340703259170887
-0.0002106,-0.3062614269125321,-0.2315212502910912
-0.000210525,-0.3046100807675193,-0.2296545113927717
-0.00021045,-0.3031798418310619,-0.2279587783502586
-0.000210375,-0.3024017343625467,-0.2270462418704019
-0.0002103,-0.3014397078801387,-0.225825074295507
-0.000210225,-0.3010017950825603,-0.2251770982912715
-0.00021015,-0.3008936698118893,-0.2246615620771274
-0.000210075,-0.2998547196677636,-0.2235700649205836
-0.00021,-0.2977937780684944,-0.2216534431411664
-0.000209925,-0.2958232101256542,-0.2193711275329527
-0.00020985,-0.292721038722139,-0.2165310627355929
-0.000209775,-0.2889504511481692,-0.2125059917482426
-0.0002096999999999999,-0.2851941857866906,-0.2084342175288249
-0.000209625,-0.2820890012671914,-0.2049240445464932
-0.00020955,-0.2800546523988064,-0.2023754475773396
-0.000209475,-0.2787727896014946,-0.2007104625387556
-0.0002094,-0.2775716664187114,-0.1994843374465479
-0.000209325,-0.2766897848568856,-0.198370696712673
-0.00020925,-0.2758383912712811,-0.1975941899492392
-0.000209175,-0.2753521496791485,-0.1966861893128101
-0.0002091,-0.2752946130400206,-0.1965333040375262
-0.0002090249999999999,-0.2737966681979837,-0.1949418042210827
-0.00020895,-0.271711472997347,-0.1928214683681896
-0.000208875,-0.2686856206500391,-0.1897241938967424
-0.0002088,-0.2654664630360803,-0.1863631567110818
-0.000208725,-0.2615866995654711,-0.18234495786842
-0.0002086499999999999,-0.2572047765281437,-0.1776307121984724
-0.000208575,-0.2538157148542505,-0.1738069620003797
-0.0002085,-0.2513779751717635,-0.1712683256522173
-0.000208425,-0.2495715625807294,-0.1694174849990727
-0.00020835,-0.2480140789632864,-0.1679712803279603
