Frequency (Hz),Channel 2 Magnitude (dB),Channel 2 Phase (deg)
1000.000000000002,-5.998067131896807,61.0405916926893
1063.326571637164,-5.607324749041005,59.47892443663971
1130.663397949641,-5.221472840205944,57.86520725266105
1202.264434617416,-4.854373092074982,56.23254349742984
1278.399719463026,-4.503859050038132,54.54286689661932
1359.356390878528,-4.162846833239431,52.81938188715667
1445.439770745931,-3.838336393156563,51.11407807479148
1536.974515935274,-3.533152575910468,49.3683676161521
1634.305842723141,-3.243692981471457,47.61348392841636
1737.80082874938,-2.966860935885958,45.87618645235399
1847.849797422294,-2.704979757645846,44.09838726028845
1964.867789993472,-2.462659978077937,42.34886264133543
2089.296130854043,-2.2327625126431,40.5967340577162
2221.604091955816,-2.017770891604066,38.89964840756177
2362.290662634467,-1.825202845925085,37.19259365716114
2511.886431509585,-1.640311397799785,35.52215732529697
2670.955587558991,-1.473587100647688,33.89044039338776
2840.098047914219,-1.318880890122134,32.29571449049126
3019.951720402022,-1.178607016562645,30.74629833015564
3211.19490936483,-1.042189037937022,29.26858153129428
3414.548873833608,-0.9296344979680813,27.78702466628744
3630.780547701021,-0.8194752050681088,26.36321198592333
3860.705432153823,-0.7248583246561575,25.02337074002362
4105.190671273087,-0.6333304243186094,23.71473427279346
4365.158322401669,-0.5583337477187585,22.44975802061217
4641.588833612786,-0.4872666885597922,21.26082219347377
4935.524741394816,-0.4231427687565041,20.1118323742125
5248.074602497733,-0.3618027684558224,19.00708438732396
5580.417174769976,-0.3093354721966353,17.96573052372119
5933.805862753293,-0.2660914479420457,16.96025556382062
6309.573444801943,-0.2252855973712887,16.03439266234319
6709.137099554126,-0.1893625830529941,15.11647114415348
7134.003750712579,-0.1541707538880222,14.26673862588933
7585.775750291851,-0.1228113845093874,13.45493058283079
8066.156921766152,-0.09955794272002241,12.68667825148797
8576.958985908963,-0.07459643460365276,11.95638242362605
9120.108393559114,-0.05120305109876878,11.25864403067965
9697.653591082517,-0.03642321100386373,10.61575333506244
10311.77274593057,-0.02320410234297753,9.979087233470239
10964.78196143186,-0.002284360458797837,9.408971605847739
11659.14401179832,0.009013221327651593,8.862147770592316
12397.47763028945,0.0205416131361251,8.320077784906061
13182.56738556409,0.02933255985383167,7.8443210739905
14017.37418346771,0.04032579295242944,7.37503197768514
14905.04643386197,0.04941041090770334,6.938436528210815
15848.93192461116,0.05553653481336285,6.518846031265284
16852.59044750753,0.06436159277507292,6.141315687420345
17919.80722375336,0.06949978045283631,5.761952060403587
19054.6071796325,0.07447963384856271,5.41525855395944
20261.27012621145,0.07743611628290835,5.078589357031504
21544.34690031884,0.08341782298317965,4.773693133116982
22908.67652767777,0.08736425545653777,4.482894821964891
24359.40447292029,0.08857485508184795,4.208245089773129
25902.00204531325,0.09021554397108147,3.948432103517845
27542.28703338169,0.09219061580056696,3.706611110362928
29286.4456462524,0.1003324501635195,3.461664447037705
31141.05584446762,0.1059072333825449,3.244674539462352
33113.11214825914,0.1019328324464814,3.032434051281413
35210.05201684524,0.107144110634137,2.840656177367568
37439.78389823814,0.1033763319299178,2.65114964605857
39810.71705534978,0.1051623668855843,2.473679347549094
42331.79328088216,0.1047388354219171,2.298344499466864
45012.52062061341,0.1062417802826093,2.138235682671066
47863.00923226385,0.1107058337610787,1.981208576383793
50894.00951518099,0.1086781954710287,1.843117234193983
54116.95265464643,0.1060969168241163,1.700211857497393
57543.99373371572,0.110060913235672,1.580719970085667
61188.05757518225,0.107271028073399,1.465127005463863
65062.8874865558,0.1094861449144005,1.329470600538752
69183.09709189369,0.1113242193231776,1.214108542616145
73564.22544596421,0.1118043406860249,1.111219779797182
78222.79563860038,0.1129723553731446,0.9957433778868781
83176.37711026717,0.1146509988459429,0.9034951484360363
88443.65191386007,0.1104364201122923,0.7864585927271861
94044.48517263534,0.1134246914747358,0.7044187909586448
100000.0000000001,0.1056990555279776,0.5883823271249682
106332.6571637163,0.1154036244024029,0.4999207008077349
113066.339794964,0.1167856803763505,0.4229222680987732
120226.4434617414,0.114612148099026,0.3200714156019302
127839.9719463024,0.1105854377121756,0.2443776480022279
135935.6390878527,0.1126002917855223,0.2083276583386464
144543.977074593,0.1135739554462872,0.0806520736787526
153697.4515935273,0.1144348584789266,-0.01841510376304711
163430.5842723139,0.1237263489623697,-0.07571354281159159
173780.0828749378,0.1163102737889904,-0.1875852895788483
184784.9797422292,0.1126186255151732,-0.2753971009403813
196486.778999347,0.114789210308518,-0.3627823983377141
208929.6130854041,0.1124721609744518,-0.4420317942415295
222160.4091955814,0.1129076471041589,-0.550904576646488
236229.0662634465,0.1130357202617571,-0.6419136874876017
251188.6431509582,0.1051379054607989,-0.7386664944002064
267095.5587558988,0.1100329337943352,-0.8388470071675815
284009.8047914217,0.1085154670184393,-0.957509743431217
301995.1720402019,0.1067341015210518,-1.054768731972487
321119.4909364826,0.06989844974882128,-1.181249286061444
341454.8873833602,0.1046692482911605,-1.290030551951943
363078.0547701016,0.1042699813663697,-1.435596077832884
386070.5432153813,0.09577806759261032,-1.574038577089986
410519.0671273081,0.09689112173297869,-1.723327266300575
436515.8322401663,0.09571701586751842,-1.887339346895004
464158.8833612779,0.08966462310160719,-2.064173743799842
493552.4741394809,0.07069689071372817,-2.265419024230525
524807.4602497731,0.07931940574691609,-2.459931430520342
558041.7174769967,0.0716345510529186,-2.657058484381764
593380.5862753284,0.06144663130717404,-2.905172553096691
630957.3444801933,0.05100397353115668,-3.18039649996237
670913.7099554116,0.03519690741650248,-3.481771382495594
713400.3750712569,0.0127805134546473,-3.812333400408297
758577.575029184,-0.0139864957819917,-4.182216000510962
806615.692176614,-0.04856644471287364,-4.592654509163765
857695.8985908942,-0.09143831336559091,-5.022991120194401
912010.8393559101,-0.1441470754389247,-5.509123299267536
969765.3591082501,-0.2021716694018659,-6.026737588117413
1031177.274593055,-0.2843223654161978,-6.555959203302905
1096478.196143186,-0.3743026517911573,-7.114346282023981
1165914.401179833,-0.4753860748836425,-7.649604568563248
1239747.763028945,-0.5848033879068355,-8.199075546393523
1318256.738556408,-0.7055685221453133,-8.701132960532362
1401737.41834677,-0.8340569543737324,-9.217639073961749
1490504.643386197,-0.9679251212584437,-9.682133525618838
1584893.192461115,-1.107733295506696,-10.12169456892111
1685259.044750752,-1.248642465120027,-10.52992634310124
1791980.722375334,-1.393263032518326,-10.89869065306874
1905460.717963247,-1.539635859580856,-11.24239936800574
2026127.012621144,-1.68437106865253,-11.56075907853025
2154434.690031885,-1.82644100671551,-11.81553145901753
2290867.652767773,-1.967048992802167,-12.05702539985208
2435940.447292028,-2.104108136210059,-12.29018510665183
2590200.204531326,-2.232972597507486,-12.45282702743519
2754228.703338167,-2.353596810238248,-12.62586111137992
2928644.564625238,-2.467168689603457,-12.77552699437524
3114105.584446759,-2.571008174501453,-12.9075258428264
3311311.214825912,-2.668849277728599,-13.03214523025193
3521005.201684522,-2.757574171598265,-13.13047880215188
3743978.389823812,-2.841146606550784,-13.21876804922593
3981071.705534974,-2.916262393730918,-13.32699162167872
4233179.328088207,-2.977868651037574,-13.41635933774698
4501252.062061337,-3.037730175388671,-13.52738641839635
4786300.923226386,-3.083327513113425,-13.64474600663722
5089400.95151809,-3.123772262357505,-13.77122830130025
5411695.265464637,-3.148509207742971,-13.89801768989844
5754399.373371567,-3.163658989061479,-14.06581504293004
6118805.75751822,-3.175239601651593,-14.22726334011863
6506288.748655574,-3.166695207195743,-14.42359433748072
6918309.709189363,-3.14775293120101,-14.63655142463064
7356422.544596414,-3.115477543515326,-14.9155735266387
7822279.56386003,-3.071375248525493,-15.18739489265556
8317637.711026709,-3.009272497071344,-15.48829574104364
8844365.191385999,-2.930205573664952,-15.83118844435214
9404448.517263513,-2.825303322996509,-16.17014856960509
10000000,-2.50383003288857,-15.82992556579828
